-0.500000000000000 0.001414647732029
-0.490000000000000 0.001433699154057
-0.480000000000000 0.001453138033252
-0.470000000000000 0.001472974947634
-0.460000000000000 0.001493220838691
-0.450000000000000 0.001513887026461
-0.440000000000000 0.001534985225364
-0.430000000000000 0.001556527560801
-0.420000000000000 0.001578526586580
-0.410000000000000 0.001600995303208
-0.400000000000000 0.001623947177102
-0.390000000000000 0.001647396160769
-0.380000000000000 0.001671356714013
-0.370000000000000 0.001695843826232
-0.360000000000000 0.001720873039865
-0.350000000000000 0.001746460475056
-0.340000000000000 0.001772622855621
-0.330000000000000 0.001799377536370
-0.320000000000000 0.001826742531901
-0.310000000000000 0.001854736546928
-0.300000000000000 0.001883379008247
-0.290000000000000 0.001912690098448
-0.280000000000000 0.001942690791479
-0.270000000000000 0.001973402890166
-0.260000000000000 0.002004849065842
-0.250000000000000 0.002037052900191
-0.240000000000000 0.002070038929465
-0.230000000000000 0.002103832691235
-0.220000000000000 0.002138460773825
-0.210000000000000 0.002173950868623
-0.200000000000000 0.002210331825455
-0.190000000000000 0.002247633711226
-0.180000000000000 0.002285887872056
-0.170000000000000 0.002325126999151
-0.160000000000000 0.002365385198661
-0.150000000000000 0.002406698065808
-0.140000000000000 0.002449102763590
-0.130000000000000 0.002492638106373
-0.120000000000000 0.002537344648735
-0.110000000000000 0.002583264779937
-0.100000000000000 0.002630442824426
-0.090000000000000 0.002678925148828
-0.080000000000000 0.002728760275900
-0.070000000000000 0.002779999005972
-0.060000000000000 0.002832694546443
-0.050000000000000 0.002886902649953
-0.040000000000000 0.002942681761891
-0.030000000000000 0.003000093177981
-0.020000000000000 0.003059201212723
-0.010000000000000 0.003120073379571
0.000000000000000 0.003182780583780
0.010000000000000 0.003247397328951
0.020000000000000 0.003314001938405
0.030000000000000 0.003382676792601
0.040000000000000 0.003453508583962
0.050000000000000 0.003526588590558
0.060000000000000 0.003602012970282
0.070000000000000 0.003679883077269
0.080000000000000 0.003760305802526
0.090000000000000 0.003843393940881
0.100000000000000 0.003929266586641
0.110000000000000 0.004018049560512
0.120000000000000 0.004109875870675
0.130000000000000 0.004204886211147
0.140000000000000 0.004303229500930
0.150000000000000 0.004405063467808
0.160000000000000 0.004510555281051
0.170000000000000 0.004619882237791
0.180000000000000 0.004733232508309
0.190000000000000 0.004850805946111
0.200000000000000 0.004972814969283
0.210000000000000 0.005099485520407
0.220000000000000 0.005231058113127
0.230000000000000 0.005367788974432
0.240000000000000 0.005509951292778
0.250000000000000 0.005657836583430
0.260000000000000 0.005811756183746
0.270000000000000 0.005972042892754
0.280000000000000 0.006139052771144
0.290000000000000 0.006313167119869
0.300000000000000 0.006494794657902
0.310000000000000 0.006684373922381
0.320000000000000 0.006882375917487
0.330000000000000 0.007089307041955
0.340000000000000 0.007305712329213
0.350000000000000 0.007532179038897
0.360000000000000 0.007769340643978
0.370000000000000 0.008017881264075
0.380000000000000 0.008278540602960
0.390000000000000 0.008552119456846
0.400000000000000 0.008839485870141
0.410000000000000 0.009141582027105
0.420000000000000 0.009459431981688
0.430000000000000 0.009794150344117
0.440000000000000 0.010146952061963
0.450000000000000 0.010519163456173
0.460000000000000 0.010912234699479
0.470000000000000 0.011327753956719
0.480000000000000 0.011767463444872
0.490000000000000 0.012233277716518
0.500000000000000 0.012727304525542
0.510000000000000 0.013251868700408
0.520000000000000 0.013809539530750
0.530000000000000 0.014403162270760
0.540000000000000 0.015035894481993
0.550000000000000 0.015711248084096
0.560000000000000 0.016433138161270
0.570000000000000 0.017205939793719
0.580000000000000 0.018034554458005
0.590000000000000 0.018924487882509
0.600000000000000 0.019881941672942
0.610000000000000 0.020913921562667
0.620000000000000 0.022028365825868
0.630000000000000 0.023234298261591
0.640000000000000 0.024542011270917
0.650000000000000 0.025963285985628
0.660000000000000 0.027511658269991
0.670000000000000 0.029202741851724
0.680000000000000 0.031054623042322
0.690000000000000 0.033088345757151
0.700000000000000 0.035328511230166
0.710000000000000 0.037804024487387
0.720000000000000 0.040549030087108
0.730000000000000 0.043604093997780
0.740000000000000 0.047017708446646
0.750000000000000 0.050848224629999
0.760000000000000 0.055166358090779
0.770000000000000 0.060058469091282
0.780000000000000 0.065630904367793
0.790000000000000 0.072015811353800
0.800000000000000 0.079379023985984
0.810000000000000 0.087930907785579
0.820000000000000 0.097941503441168
0.830000000000000 0.109762029718550
0.840000000000000 0.123855986841944
0.850000000000000 0.140845082382211
0.860000000000000 0.161578622428323
0.870000000000000 0.187241109519880
0.880000000000000 0.219524059437101
0.890000000000000 0.260909742773603
0.900000000000000 0.315158303152273
0.910000000000000 0.388182788029019
0.920000000000000 0.489707517205839
0.930000000000000 0.636619772367590
0.940000000000000 0.860296989685932
0.950000000000000 1.224268793014592
0.960000000000000 1.872411095198782
0.970000000000000 3.183098861837910
0.980000000000000 6.366197723675747
0.990000000000000 15.915494309189022
1.000000000000000 31.830988618378254
1.010000000000000 15.915494309190062
1.020000000000000 6.366197723676085
1.030000000000000 3.183098861838040
1.040000000000000 1.872411095198844
1.050000000000000 1.224268793014627
1.060000000000000 0.860296989685953
1.070000000000000 0.636619772367605
1.080000000000000 0.489707517205850
1.090000000000000 0.388182788029027
1.100000000000000 0.315158303152279
1.110000000000000 0.260909742773608
1.120000000000000 0.219524059437105
1.130000000000000 0.187241109519884
1.140000000000000 0.161578622428326
1.150000000000000 0.140845082382213
1.160000000000000 0.123855986841946
1.170000000000000 0.109762029718553
1.180000000000000 0.097941503441170
1.190000000000000 0.087930907785581
1.200000000000000 0.079379023985986
1.210000000000000 0.072015811353802
1.220000000000000 0.065630904367794
1.230000000000000 0.060058469091284
1.240000000000000 0.055166358090780
1.250000000000000 0.050848224630001
1.260000000000000 0.047017708446647
1.270000000000000 0.043604093997781
1.280000000000000 0.040549030087109
1.290000000000000 0.037804024487388
1.300000000000000 0.035328511230167
1.310000000000000 0.033088345757152
1.320000000000000 0.031054623042322
1.330000000000000 0.029202741851725
1.340000000000000 0.027511658269992
1.350000000000000 0.025963285985628
1.360000000000000 0.024542011270918
1.370000000000000 0.023234298261592
1.380000000000000 0.022028365825869
1.390000000000000 0.020913921562668
1.400000000000000 0.019881941672942
1.410000000000000 0.018924487882509
1.420000000000000 0.018034554458006
1.430000000000000 0.017205939793719
1.440000000000000 0.016433138161270
1.450000000000000 0.015711248084097
1.460000000000000 0.015035894481994
1.470000000000000 0.014403162270760
1.480000000000000 0.013809539530751
1.490000000000000 0.013251868700408
1.500000000000000 0.012727304525542
