-0.500000000000000 -0.666637038353851 -0.004444246922359 
-0.490000000000000 -0.671110710746780 -0.004504098729844 
-0.480000000000000 -0.675644829947501 -0.004565167769916 
-0.470000000000000 -0.680240629338269 -0.004627487274410 
-0.460000000000000 -0.684899376084815 -0.004691091617019 
-0.450000000000000 -0.689622372300961 -0.004756016360696 
-0.440000000000000 -0.694410956261754 -0.004822298307373 
-0.430000000000000 -0.699266503667482 -0.004889975550122 
-0.420000000000000 -0.704190428961071 -0.004959087527895 
-0.410000000000000 -0.709184186701539 -0.005029675082990 
-0.400000000000000 -0.714249272996276 -0.005101780521402 
-0.390000000000000 -0.719387226995135 -0.005175447676224 
-0.380000000000000 -0.724599632449462 -0.005250721974272 
-0.370000000000000 -0.729888119339371 -0.005327650506127 
-0.360000000000000 -0.735254365572796 -0.005406282099800 
-0.350000000000000 -0.740700098760013 -0.005486667398222 
-0.340000000000000 -0.746227098067606 -0.005568858940803 
-0.330000000000000 -0.751837196156020 -0.005652911249293 
-0.320000000000000 -0.757532281205165 -0.005738880918221 
-0.310000000000000 -0.763314299032747 -0.005826826710174 
-0.300000000000000 -0.769185255310337 -0.005916809656233 
-0.290000000000000 -0.775147217882466 -0.006008893161880 
-0.280000000000000 -0.781202319194385 -0.006103143118706 
-0.270000000000000 -0.787352758834470 -0.006199628022319 
-0.260000000000000 -0.793600806197644 -0.006298419096807 
-0.250000000000000 -0.799948803276590 -0.006399590426213 
-0.240000000000000 -0.806399167587956 -0.006503219093451 
-0.230000000000000 -0.812954395241243 -0.006609385327165 
-0.220000000000000 -0.819617064158549 -0.006718172657037 
-0.210000000000000 -0.826389837453900 -0.006829668078131 
-0.200000000000000 -0.833275466981460 -0.006943962224846 
-0.190000000000000 -0.840276797062562 -0.007061149555148 
-0.180000000000000 -0.847396768402154 -0.007181328545781 
-0.170000000000000 -0.854638422205990 -0.007304601899197 
-0.160000000000000 -0.862004904510664 -0.007431076763023 
-0.150000000000000 -0.869499470739453 -0.007560864962952 
-0.140000000000000 -0.877125490497807 -0.007694083249981 
-0.130000000000000 -0.884886452623336 -0.007830853563038 
-0.120000000000000 -0.892785970506178 -0.007971303308091 
-0.110000000000000 -0.900827787696803 -0.008115565654926 
-0.100000000000000 -0.909015783819519 -0.008263779852905 
-0.090000000000000 -0.917353980811311 -0.008416091567076 
-0.080000000000000 -0.925846549507072 -0.008572653236177 
-0.070000000000000 -0.934497816593887 -0.008733624454149 
-0.060000000000000 -0.943312271958708 -0.008899172376969 
-0.050000000000000 -0.952294576455650 -0.009069472156721 
-0.040000000000000 -0.961449570121106 -0.009244707405011 
-0.030000000000000 -0.970782280867107 -0.009425070688030 
-0.020000000000000 -0.980297933685728 -0.009610764055742 
-0.010000000000000 -0.990001960399922 -0.009801999607920 
0.000000000000000 -0.999900009999000 -0.009999000099990 
0.010000000000000 -1.009997959600082 -0.010201999591920 
0.020000000000000 -1.020301926080167 -0.010411244143675 
0.030000000000000 -1.030818278427205 -0.010626992561105 
0.040000000000000 -1.041553650862537 -0.010849517196485 
0.050000000000000 -1.052514956791491 -0.011079104808332 
0.060000000000000 -1.063709403643771 -0.011316057485572 
0.070000000000000 -1.075144508670520 -0.011560693641619 
0.080000000000000 -1.086828115770821 -0.011813349084465 
0.090000000000000 -1.098768413426709 -0.012074378169524 
0.100000000000000 -1.110973953832860 -0.012344155042587 
0.110000000000000 -1.123453673314820 -0.012623074981065 
0.120000000000000 -1.136216914138154 -0.012911555842479 
0.130000000000000 -1.149273447820344 -0.013210039630119 
0.140000000000000 -1.162633500067595 -0.013518994186833 
0.150000000000000 -1.176307777470246 -0.013838915029062 
0.160000000000000 -1.190307496103160 -0.014170327334562 
0.170000000000000 -1.204644412191582 -0.014513788098694 
0.180000000000000 -1.219330855018587 -0.014869888475837 
0.190000000000000 -1.234379762267601 -0.015239256324292 
0.200000000000000 -1.249804718012810 -0.015622558975160 
0.210000000000000 -1.265619993591797 -0.016020506247998 
0.220000000000000 -1.281840591618735 -0.016433853738702 
0.230000000000000 -1.298482293423271 -0.016863406408095 
0.240000000000000 -1.315561710230223 -0.017310022503030 
0.250000000000000 -1.333096338428724 -0.017774617845717 
0.260000000000000 -1.351104619317144 -0.018258170531313 
0.270000000000000 -1.369606003752345 -0.018761726078800 
0.280000000000000 -1.388621022179363 -0.019286403085825 
0.290000000000000 -1.408171360571202 -0.019833399444665 
0.300000000000000 -1.428279942868802 -0.020403999183840 
0.310000000000000 -1.448971020579588 -0.020999580008400 
0.320000000000000 -1.470270270270270 -0.021621621621622 
0.330000000000000 -1.492204899777283 -0.022271714922049 
0.340000000000000 -1.514803764057838 -0.022951572182695 
0.350000000000000 -1.538097491717936 -0.023663038334122 
0.360000000000000 -1.562118623382963 -0.024408103490359 
0.370000000000000 -1.586901763224181 -0.025188916876575 
0.380000000000000 -1.612483745123537 -0.026007802340703 
0.390000000000000 -1.638903815153143 -0.026867275658249 
0.400000000000000 -1.666203832268814 -0.027770063871147 
0.410000000000000 -1.694428489373923 -0.028719126938541 
0.420000000000000 -1.723625557206538 -0.029717682020803 
0.430000000000000 -1.753846153846153 -0.030769230769231 
0.440000000000000 -1.785145043034746 -0.031877590054192 
0.450000000000000 -1.817580964970257 -0.033046926635823 
0.460000000000000 -1.851217003770997 -0.034281796366130 
0.470000000000000 -1.886120996441281 -0.035587188612100 
0.480000000000000 -1.922365988909426 -0.036968576709797 
0.490000000000000 -1.960030745580322 -0.038431975403536 
0.500000000000000 -1.999200319872051 -0.039984006397442 
0.510000000000000 -2.039966694421315 -0.041631973355538 
0.520000000000000 -2.082429501084598 -0.043383947939263 
0.530000000000000 -2.126696832579185 -0.045248868778281 
0.540000000000000 -2.172886159659895 -0.047236655644781 
0.550000000000000 -2.221125370187561 -0.049358341559724 
0.560000000000000 -2.271553949406298 -0.051626226122871 
0.570000000000000 -2.324324324324323 -0.054054054054055 
0.580000000000000 -2.379603399433427 -0.056657223796035 
0.590000000000000 -2.437574316290130 -0.059453032104638 
0.600000000000000 -2.498438475952529 -0.062460961898814 
0.610000000000000 -2.562417871222075 -0.065703022339029 
0.620000000000000 -2.629757785467127 -0.069204152249136 
0.630000000000000 -2.700729927007298 -0.072992700729928 
0.640000000000000 -2.775636083269081 -0.077101002313031 
0.650000000000000 -2.854812398042413 -0.081566068515499 
0.660000000000000 -2.938634399308555 -0.086430423509076 
0.670000000000000 -3.027522935779815 -0.091743119266056 
0.680000000000000 -3.121951219512193 -0.097560975609758 
0.690000000000000 -3.222453222453220 -0.103950103950106 
0.700000000000000 -3.329633740288566 -0.110987791342954 
0.710000000000000 -3.444180522565318 -0.118764845605703 
0.720000000000000 -3.566878980891717 -0.127388535031849 
0.730000000000000 -3.698630136986298 -0.136986301369865 
0.740000000000000 -3.840472673559819 -0.147710487444611 
0.750000000000000 -3.993610223642169 -0.159744408945689 
0.760000000000000 -4.159445407279025 -0.173310225303296 
0.770000000000000 -4.339622641509429 -0.188679245283022 
0.780000000000000 -4.536082474226799 -0.206185567010313 
0.790000000000000 -4.751131221719451 -0.226244343891407 
0.800000000000000 -4.987531172069819 -0.249376558603495 
0.810000000000000 -5.248618784530379 -0.276243093922657 
0.820000000000000 -5.538461538461530 -0.307692307692313 
0.830000000000000 -5.862068965517232 -0.344827586206902 
0.840000000000000 -6.225680933852129 -0.389105058365765 
0.850000000000000 -6.637168141592908 -0.442477876106202 
0.860000000000000 -7.106598984771559 -0.507614213197978 
0.870000000000000 -7.647058823529394 -0.588235294117657 
0.880000000000000 -8.275862068965496 -0.689655172413805 
0.890000000000000 -9.016393442622925 -0.819672131147555 
0.900000000000000 -9.900990099009869 -0.990099009901006 
0.910000000000000 -10.975609756097521 -1.219512195121970 
0.920000000000000 -12.307692307692256 -1.538461538461562 
0.930000000000000 -13.999999999999931 -2.000000000000028 
0.940000000000000 -16.216216216216119 -2.702702702702737 
0.950000000000000 -19.230769230769088 -3.846153846153886 
0.960000000000000 -23.529411764705656 -5.882352941176511 
0.970000000000000 -29.999999999999603 -10.000000000000009 
0.980000000000000 -39.999999999999221 -19.999999999999791 
0.990000000000000 -49.999999999998738 -49.999999999998391 
1.000000000000000 -0.000000000003266 -99.999999999997441 
1.010000000000000 49.999999999998703 -50.000000000001658 
1.020000000000000 39.999999999999983 -20.000000000000854 
1.030000000000000 30.000000000000113 -10.000000000000418 
1.040000000000000 23.529411764705987 -5.882352941176707 
1.050000000000000 19.230769230769315 -3.846153846153995 
1.060000000000000 16.216216216216283 -2.702702702702805 
1.070000000000000 14.000000000000054 -2.000000000000074 
1.080000000000000 12.307692307692352 -1.538461538461595 
1.090000000000000 10.975609756097598 -1.219512195121996 
1.100000000000000 9.900990099009932 -0.990099009901026 
1.110000000000000 9.016393442622977 -0.819672131147571 
1.120000000000000 8.275862068965540 -0.689655172413818 
1.130000000000000 7.647058823529432 -0.588235294117668 
1.140000000000000 7.106598984771591 -0.507614213197988 
1.150000000000000 6.637168141592936 -0.442477876106211 
1.160000000000000 6.225680933852154 -0.389105058365773 
1.170000000000000 5.862068965517254 -0.344827586206909 
1.180000000000000 5.538461538461550 -0.307692307692319 
1.190000000000000 5.248618784530398 -0.276243093922662 
1.200000000000000 4.987531172069835 -0.249376558603501 
1.210000000000000 4.751131221719466 -0.226244343891411 
1.220000000000000 4.536082474226813 -0.206185567010317 
1.230000000000000 4.339622641509442 -0.188679245283026 
1.240000000000000 4.159445407279037 -0.173310225303300 
1.250000000000000 3.993610223642179 -0.159744408945693 
1.260000000000000 3.840472673559829 -0.147710487444614 
1.270000000000000 3.698630136986307 -0.136986301369868 
1.280000000000000 3.566878980891726 -0.127388535031852 
1.290000000000000 3.444180522565326 -0.118764845605706 
1.300000000000000 3.329633740288573 -0.110987791342957 
1.310000000000000 3.222453222453227 -0.103950103950108 
1.320000000000000 3.121951219512200 -0.097560975609760 
1.330000000000000 3.027522935779821 -0.091743119266059 
1.340000000000000 2.938634399308561 -0.086430423509079 
1.350000000000000 2.854812398042418 -0.081566068515501 
1.360000000000000 2.775636083269086 -0.077101002313033 
1.370000000000000 2.700729927007303 -0.072992700729930 
1.380000000000000 2.629757785467132 -0.069204152249138 
1.390000000000000 2.562417871222080 -0.065703022339031 
1.400000000000000 2.498438475952533 -0.062460961898816 
1.410000000000000 2.437574316290134 -0.059453032104640 
1.420000000000000 2.379603399433431 -0.056657223796037 
1.430000000000000 2.324324324324327 -0.054054054054057 
1.440000000000000 2.271553949406301 -0.051626226122873 
1.450000000000000 2.221125370187565 -0.049358341559726 
1.460000000000000 2.172886159659899 -0.047236655644783 
1.470000000000000 2.126696832579188 -0.045248868778283 
1.480000000000000 2.082429501084601 -0.043383947939265 
1.490000000000000 2.039966694421318 -0.041631973355539 
1.500000000000000 1.999200319872054 -0.039984006397443 
